,0
0,"    Theta       rho
0    0.01  0.838696
1    0.10  0.838844
2    0.30  0.838779
3    0.50  0.838182
4    0.75  0.836709
5    1.00  0.834460
6    1.50  0.827812
7    2.00  0.818720
8    3.00  0.796049
9    4.00  0.771821
10   5.00  0.749002
11   6.00  0.728275
12   7.00  0.709300
13   8.00  0.691565
14   9.00  0.674755"
